4095
4095
4095
4095
4095
4095
4095
4095
4095
4095
4095
4095
4095
4095
4095
3783
3455
3199
3011
2883
2687
2559
2450
2323
2263
2639
3474
3563
2447
1842
1617
1429
1296
1235
1232
1132
1125
1089
1076
1011
944
912
789
736
762
802
746
691
662
641
668
660
589
544
540
508
496
477
502
576
537
524
472
494
490
588
585
569
684
758
736
692
718
771
812
900
882
886
884
941
886
824
954
1009
992
998
1074
1226
1232
1321
1457
1424
1409
1458
1413
1405
1524
1534
1520
1587
1607
1653
2000
2951
3643
2691
2021
1879
1814
1776
1839
1817
1949
1984
2055
2119
2193
2311
2321
2310
2351
2443
2447
2453
2535
2473
2545
2608
2559
2506
2486
2461
2431
2459
2542
2687
2802
2827
2875
2959
3035
2935
2987
2959
2791
2705
2627
2838
2609
2635
2717
2773
2795
2781
2807
2673
2703
2775
2691
2641
2672
2800
2759
2739
2783
2834
2815
2801
2813
2739
2683
2683
2619
2559
2559
2559
2535
2642
2515
2707
3454
4095
4063
2827
2642
2527
2555
2535
2559
2593
2609
2526
2263
2144
2298
2359
2463
2645
2769
2909
3027
3039
2993
2891
2823
2925
2911
2807
2806
2719
2559
2396
2303
2257
2341
2435
2531
2541
2653
2695
2790
2802
2803
2855
2751
2773
2810
2739
2807
2847
2795
2831
2855
2841
2855
2875
2727
2535
2693
3055
3027
2874
2885
2863
2911
2855
2805
2903
2966
2979
2961
3423
4095
4095
4095
3103
2879
2719
2697
2865
2967
3057
2967
2979
2845
2703
2695
2683
2626
2685
2693
2795
2811
2819
2805
2863
2837
2859
2807
2799
2755
2749
2767
2707
2703
2743
2662
2695
2751
2699
2736
2797
2763
2653
2559
2527
2559
2633
2595
2635
2653
2591
2507
2498
2512
2613
2687
2879
3135
3247
3135
2963
2991
3039
2939
2883
2787
2515
2519
2513
2543
2613
3095
4095
4095
3631
2897
2803
2609
2462
2325
2241
1951
2207
2539
2651
2735
2903
2957
2951
2927
2879
2983
2875
2931
2949
2897
2827
2813
2837
2835
2779
2735
2751
2683
2667
2822
2879
2927
2799
2747
2879
3063
3057
3163
3183
3190
3071
3007
2833
2861
2757
2839
3125
3251
3034
2961
2802
2768
2693
2698
2503
2423
2352
2559
2559
2705
2751
2787
2775
3115
3819
4095
4095
2891
2651
2559
2510
2547
2429
2555
2503
2495
2619
2641
2693
2559
2607
2675
2709
2715
2691
2718
2559
2707
2779
2815
2783
2795
2887
2767
2823
2815
2543
2531
2647
2527
2330
2507
2543
2597
2643
2651
2671
2559
2470
2535
2373
2343
2174
2151
2080
2235
2647
2755
2864
2879
2781
2815
2799
2703
2695
2751
2704
2671
2758
3479
4095
4095
3055
2705
2703
2601
2669
2731
2627
2751
2883
2995
3023
3291
3345
3435
3807
3731
3235
3107
2919
2765
2755
2806
2799
2705
2559
2443
2370
2373
2427
2477
2506
2679
2663
2768
2843
2887
2942
2863
2879
2838
2800
2640
2535
2543
2466
2544
2591
2525
2513
2480
2526
2431
2323
2367
2341
2467
2463
2431
2431
2559
3063
4095
4095
3235
2783
2923
2963
2887
2815
2663
2519
2501
2461
2411
2549
2829
2923
2819
2815
2815
2731
2703
2547
2603
2695
2497
2323
2238
2256
2443
2559
2479
2559
2727
2715
2743
2727
2667
2699
2607
2671
2715
2743
2831
2733
2747
2735
2715
2667
2879
3039
3159
3150
3139
3247
3159
3055
3279
3319
3021
2807
2731
2643
2759
3439
4095
3871
2801
2499
2559
2559
2533
2513
2635
2747
2639
2607
2736
2775
2813
2878
3007
2915
2983
2855
2781
2815
2865
2847
2607
2509
2382
2333
2367
2387
2637
2729
2737
2725
2791
2807
2763
2878
3015
2939
2927
2943
2951
2787
2765
2871
2947
2943
3095
3191
3059
3007
2882
2779
2671
2559
2535
2405
2311
2366
2531
2607
2739
3231
4095
4095
3015
2350
2279
2108
2330
2471
2607
2627
2669
2755
2755
2735
2757
2702
2807
2771
2815
2862
2951
2943
2992
2879
2981
2897
2707
2687
2827
2705
2795
2855
2939
2923
3047
3199
3263
3431
3205
3011
2965
2775
2637
2730
2811
2855
2899
2805
2750
2601
2519
2559
2407
2363
2417
2327
2430
2509
2638
2803
2757
2883
2846
3187
4095
4095
3729
2803
2687
2559
2537
2452
2511
2495
2418
2443
2431
2481
2516
2622
2683
2673
2767
2751
2726
2687
2719
2751
2759
2834
2853
2891
2895
2898
2811
2803
2697
2671
2609
2559
2607
2556
2649
2703
2807
2879
2834
2833
2559
2431
2443
2288
2320
2315
2511
2727
2847
2855
2815
2771
2702
2734
2769
2851
2722
2734
2839
3263
4095
4095
3871
3227
3215
3039
2803
2762
2768
2795
2847
2815
2871
2982
3015
2896
2827
2779
2895
2898
2839
2875
2863
2783
2675
2481
2321
2286
2295
2269
2311
2395
2518
2591
2658
2711
2719
2678
2665
2643
2599
2597
2641
2559
2598
2559
2502
2551
2691
2655
2755
2791
2777
2704
2767
2709
2623
2663
2671
2701
2767
2705
2839
3439
4095
4095
3246
2703
2669
2463
2291
2238
2187
2151
2262
2389
2559
2704
2679
2705
2703
2695
2751
2783
2787
2901
2845
2929
2831
2795
2769
2711
2675
2741
2747
2715
2769
2783
2803
2815
2867
2847
2861
2865
2827
2911
2879
2835
2815
2879
2975
2927
2862
2814
2870
2801
2770
2693
2705
2662
2625
2559
2637
2687
2651
2853
3687
4095
4095
3229
2826
2863
2831
2783
2719
2759
2651
2819
2790
2811
2879
2935
2995
2963
3035
3135
3102
3147
3215
3231
3002
2983
2887
2811
2827
2839
2811
2783
2783
2779
2727
2695
2702
2718
2687
2711
2633
2559
2501
2623
2483
2535
2603
2651
2695
2803
2823
2843
2919
2907
2919
2887
2839
2871
2915
2879
2939
2843
2896
2903
3391
4095
4095
3359
2735
2677
2631
2671
2635
2653
2623
2640
2615
2698
2630
2039
2502
2603
2658
2768
2901
2849
2768
2719
2723
2699
2615
2533
2496
2546
2539
2559
2622
2682
2725
2707
2639
2609
2594
2415
2288
2321
2416
2515
2635
2595
2672
2679
2655
2831
2807
2901
2829
2894
2751
2769
2618
2462
2370
2293
2406
2362
2382
2518
3022
4095
4095
3203
2695
2702
2704
2787
2713
2718
2583
2526
2559
2626
2554
2656
2515
2458
2411
2409
2357
2257
2301
2342
2368
2442
2416
2467
2508
2527
2544
2688
2707
2736
2699
2591
2591
2538
2517
2512
2534
2626
2663
2713
2749
2761
2735
2837
2832
2802
2887
2869
2835
2896
2762
2624
2669
2753
2640
2686
2849
2796
2942
3563
4095
4095
3392
2913
2782
2719
2743
2672
2765
2735
2621
2640
2672
2805
2844
2875
2921
2909
2884
2785
2773
2855
2903
2863
2815
2851
2855
2890
2934
2941
2928
2883
2919
2919
3006
3034
3139
3216
3136
3067
2905
2855
2777
2859
2956
2976
3051
3116
3148
3185
3327
3361
3478
3791
3742
3421
3231
3205
2972
2828
2723
2882
2992
3793
4095
4095
2986
2550
2505
2473
2433
2394
2433
2373
2636
2432
2559
2523
2771
2977
3031
3379
3229
2838
2914
2959
2818
2832
2736
2668
2746
2685
2624
2441
2494
2589
2494
2506
2480
2653
2727
2747
2861
2861
2802
2625
2870
2989
2978
2977
3230
3287
3127
3090
3045
3052
2953
2947
2897
2827
2960
3028
2857
2822
2710
2688
2927
3769
4095
3299
2496
2320
2239
2407
2435
2479
2403
2581
2653
2512
2417
2525
2672
2713
2625
2745
2787
2781
2720
2814
2721
2630
2649
2592
2394
2365
2463
2585
2734
2796
2875
3184
3573
3509
3291
3120
3163
2955
2556
2349
2273
2673
2842
2810
2753
2721
2589
2624
2788
2758
2845
2843
2698
2594
2539
2537
2460
2597
2581
2737
3615
4095
4095
3024
2685
2653
2659
2559
2487
2512
2634
2640
2647
2599
2597
2595
2557
2606
2672
2722
2730
2789
2793
2787
2883
2860
2786
2928
3111
3183
3171
3071
2992
2851
2628
2421
2548
2720
2783
2871
2855
2979
3178
3472
3165
2929
2881
2797
2791
2736
2672
2546
2553
2559
2692
2715
2769
2739
2767
2738
2689
2698
2783
3024
4095
4095
4095
3061
2843
2748
2726
2827
2800
2623
2495
2486
2675
2640
2817
2893
2791
2929
2814
2779
3063
3186
2500
2423
2331
2671
2640
2517
2606
2640
2647
2431
2367
2416
2406
2545
2544
2422
2501
2723
2643
2736
2797
2625
2559
2476
2382
2390
2499
2432
2521
2501
2626
2659
2603
2657
2544
2512
2586
2559
2657
2689
2640
2820
3162
4095
4095
3248
2993
2979
2925
2911
3012
2910
2928
2908
2903
2867
2785
2850
2813
2703
2704
2879
3115
3251
3242
3170
3058
2947
2741
2638
2331
2259
2318
2320
2496
2533
2780
2928
2896
2906
2967
3056
3086
3109
3023
3067
2955
3103
3136
3150
3101
2864
2979
2942
2974
3243
3248
3203
3207
3383
3442
3311
3367
3219
3117
3221
3136
3583
4095
4095
3807
3024
3035
3056
3317
2880
2445
2320
2401
2474
2641
2781
2800
3087
2919
2763
2803
2925
2958
2922
2975
2895
2835
2768
2641
2438
2461
2426
2526
2558
2512
2640
2608
2587
2587
2559
2543
2418
2483
2477
2679
2699
2653
2504
2598
2588
2612
2625
2678
2736
2866
3056
3091
3030
3089
2881
2736
2709
2699
2612
2621
2624
2687
2711
2819
3257
4095
4095
3691
2729
2493
2382
2321
2266
2305
2389
2466
2559
2687
2695
2675
2749
2757
2789
2769
2801
2762
2765
2669
2710
2640
2647
2727
2445
2612
2694
2722
2559
2422
2413
2467
2496
2707
2850
2911
2743
2550
2838
2863
2865
2796
2475
2336
2506
2889
2546
2803
3071
3008
2871
2429
2639
2719
2469
2669
2519
2298
2373
2405
2455
2631
3006
4022
4095
3434
2886
2711
2651
3028
2367
2508
2677
2730
2766
2765
2805
2850
2718
2747
2758
2823
2874
2896
2960
2960
3012
3023
2981
2692
2736
2650
2557
2510
2471
2541
2559
2627
2749
2857
2922
2999
3035
3007
3027
3039
2941
2880
2877
2943
2986
3136
3098
3043
3006
3029
3131
3120
3231
3209
3115
3056
3024
3008
2960
2978
2960
2902
2960
2980
3189
4095
4095
4095
3275
2985
2928
2902
2960
3003
2931
2810
2868
2832
2826
2806
2816
2806
2811
2786
2768
2755
2709
2729
2747
2750
2695
2747
2658
2559
2627
2633
2585
2554
2628
2633
2662
2640
2544
2633
2707
2675
2637
2657
2734
2788
2791
2869
2704
2890
3079
2893
2805
2831
2935
2867
2902
2835
2835
2647
2559
2544
2512
2535
2535
2631
2779
3617
4095
3740
2781
2623
2669
2542
2523
2597
2543
2551
2647
2650
2732
2752
2798
2810
2809
2891
2843
2839
2896
2907
2891
2971
2869
2843
2864
2806
2743
2769
2713
2704
2741
2720
2725
2697
2687
2751
2654
2672
2704
2671
2681
2662
2809
2837
2761
2919
2864
2829
2928
3010
2897
2813
2743
2678
2688
2677
2762
2828
2882
2891
2780
2703
2801
3316
4095
4095
3246
2871
2837
2711
2595
2608
2761
2751
2719
2755
2785
2768
2813
2782
2832
2845
2815
2771
2811
2832
3006
3030
2896
2787
2747
2783
2827
2800
2831
2802
2763
2947
3138
3344
3507
3409
3071
3004
3381
3509
2841
2657
2714
2451
2337
2425
2423
2358
2535
2896
2683
2559
2458
2375
2429
2407
2393
2416
2418
2526
2544
2587
2713
3221
4095
4095
3095
2590
2598
2635
2454
2503
2559
2559
2601
2483
2476
2475
2483
2406
2399
2415
2440
2400
2384
2455
2653
2723
2825
2802
2736
2731
2753
2864
2811
2634
2559
2491
2559
2640
2559
2542
2534
2631
2726
2832
2810
2759
2670
2614
2399
2202
2240
2284
2384
2611
2743
2714
2784
2704
2673
2713
2720
2671
2618
2592
2798
3366
4095
4095
3428
2842
2800
2597
2485
2607
2642
2800
2910
2959
3089
3122
3440
3744
3758
3789
3904
3493
3238
3136
3249
3282
3258
3083
3137
3048
2938
2602
2427
2352
2234
2371
2685
2832
2953
3113
2925
2868
2800
2799
2843
2673
2829
2807
2943
2983
3114
3243
3402
3216
3222
2951
2993
2814
2794
2704
2799
2640
2741
2591
2667
2597
2974
3882
4095
3984
3056
2878
2743
2581
2703
2480
2726
2768
2903
2731
2663
2550
2683
2365
2279
2330
2689
2823
3022
3039
3152
3065
2993
2775
2543
2334
2346
2368
2450
2492
2468
2458
2533
2499
2590
2608
2627
2590
2545
2589
2604
2559
2606
2640
2611
2659
2669
2704
2709
2768
2846
2880
2887
2804
2672
2928
2924
3136
3114
2970
3280
4095
4095
3918
2927
2692
2625
2502
2519
2677
2656
2559
2451
2437
2355
2335
2503
2661
2672
2799
2786
2786
2864
2763
2786
2861
2733
2816
2821
2768
2706
2631
2581
2409
2429
2495
2387
2533
2535
2602
2503
2538
2580
2559
2608
2528
2559
2610
2727
2847
2818
3005
3598
3515
3605
3120
2697
2759
2803
2763
2769
2719
2661
2559
3151
4095
4095
3515
3086
3194
2852
2827
2778
2875
2893
2622
2432
2554
2677
2767
2929
2935
2913
2960
2913
2911
2864
2859
2877
2889
2903
2915
2833
2759
2861
2820
2846
2807
2755
2722
2796
2766
2850
2845
2844
2845
2827
2780
2768
2797
2935
3090
3158
3286
3392
3234
2977
3062
2800
2467
2591
2767
2806
2801
2823
2821
2814
2650
2877
3696
4095
3858
2704
2517
2498
2411
2463
2480
2527
2483
2555
2534
2558
2559
2613
2593
2557
2510
2559
2527
2482
2553
2677
2641
2598
2550
2485
2433
2400
2437
2442
2430
2493
2523
2501
2493
2503
2399
2416
2630
2667
2693
2799
2802
2683
2736
2799
2885
2868
3033
2866
2906
3070
2895
2837
2765
2585
2559
2640
2786
2991
3011
3423
4095
4095
2739
2502
2758
2846
2894
2973
2947
2901
2843
2886
2946
2970
2986
2942
3137
3118
2896
2800
2723
2661
2544
2559
2557
2509
2546
2559
2475
2608
2723
2667
2785
2960
3214
3599
3890
3458
3136
2791
2765
2589
2419
2258
2656
3025
3001
3191
3472
3650
3155
3103
2779
2694
2626
2546
2559
2624
2549
2726
2783
2903
3007
3309
4095
4095
4095
3025
2948
2893
2717
2689
2760
2671
2611
2704
2781
2753
2773
2841
2849
2784
2753
2635
2605
2668
2607
2477
2528
2619
2622
2688
2619
2714
2738
2671
2447
2523
2589
2609
2651
2641
2687
2704
2628
2707
2756
2723
2663
2522
2515
2558
2579
2617
2416
2448
2437
2559
2854
2557
2414
2611
2629
2681
2734
2703
2595
2705
3179
4095
4095
3216
2708
2661
2605
2703
2618
2599
2544
2507
2718
2722
2725
2768
2833
2689
2691
2935
3086
3248
3524
3376
3344
3166
3159
2903
2657
2717
2909
2929
2820
2864
2957
2864
2667
2328
2253
2358
2445
2659
2795
2802
2558
2415
2447
2688
2855
2891
2859
3008
3088
2930
2825
2672
2591
2538
2581
2518
2517
2496
2593
2854
3666
4095
3971
2782
2486
2322
2319
2470
2623
2761
2917
2959
3019
2963
3014
3050
2858
2897
3105
2979
2911
2805
2741
2827
2871
2858
2709
2782
2900
2823
2736
2650
2310
1799
1966
2224
2401
2665
2694
2831
2902
2787
2866
2803
2815
2835
2763
2814
2765
2992
3197
3237
3711
3961
3996
3777
3567
3659
3283
3087
3030
3062
2878
2751
2887
3573
4095
4095
3179
2805
2736
2543
2544
2608
2672
2657
2608
2594
2589
2559
2479
2559
2512
2592
2658
2559
2608
2625
2688
2640
2661
2643
2592
2526
2559
2559
2559
2544
2559
2747
2765
2915
2730
2682
2698
2833
2865
2850
2832
2992
2965
2928
2943
2848
2736
2826
2806
2894
2919
2985
2921
2838
2663
2559
2717
2750
2916
3051
3136
3431
4095
4095
4095
3453
2949
2831
2775
2701
2623
2606
2659
2645
2677
2709
2697
2762
2711
2745
2818
2805
2795
2873
2815
2782
2732
2693
2736
2718
2677
2627
2675
2619
2624
2687
2671
2697
2726
2768
2784
2737
2729
2752
2771
2689
2720
2747
2679
2733
2719
2757
2890
2860
2967
2960
2811
2768
2689
2731
2749
2634
2641
2703
2763
2862
2860
3853
4095
4095
2982
2857
2724
2635
2627
2526
2539
2608
2659
2610
2623
2631
2719
2612
2678
2724
2832
2895
2762
2762
2773
2766
2829
2832
2761
2741
2667
2653
2481
2559
2641
2559
2475
2624
2700
2770
2698
2717
2741
2675
2624
2559
2591
2698
2651
2704
2681
2895
2911
2917
3045
3071
3059
3091
2922
2901
2725
2672
2609
2622
2512
2650
3041
4095
4095
3248
2606
2640
2512
2552
2579
2635
2699
2871
2815
2987
2982
3067
2994
3045
2958
2813
2731
2814
2826
2928
2771
2845
2821
2893
2959
2785
2855
2802
2607
2732
2746
2613
2526
2603
2608
2631
2669
2672
2672
2751
2653
2652
2661
2706
2558
2595
2559
2631
2708
2746
2678
2633
2597
2595
2634
2645
2651
2634
2735
2992
3102
3839
4095
4095
3351
2401
2139
2042
2320
2544
2519
2722
2844
2783
2491
2319
2376
2346
2320
2430
2288
2339
2367
2418
2507
2506
2443
2480
2583
2544
2523
2591
2517
2555
2430
2589
2608
2598
2491
2586
2653
2634
2486
2518
2477
2192
2080
2158
2413
2608
2667
2793
2699
2765
2829
2839
2861
3090
3088
2861
2736
2656
2650
2672
2711
2985
4095
4095
4095
3024
2793
2867
2675
2722
2699
2911
2884
2887
2716
2582
2541
2375
2534
2704
2861
2983
2960
3113
3196
3121
3207
3186
3136
3121
3041
3081
3018
2987
2834
2791
2611
2591
2588
2559
2705
2747
2939
2978
2861
2895
3261
3681
3934
3866
3653
3866
3827
3675
3127
2711
2639
2559
2455
2895
3019
3327
3231
3248
3027
2928
2976
3569
4095
4095
2778
2192
2340
2453
2554
2733
2809
2978
3038
3105
3369
3297
3171
3243
3063
3031
2978
2797
2903
2939
2769
2867
2877
2690
2428
2614
2496
2496
2559
2559
2622
2681
2529
2548
2626
2882
2854
2866
2922
2711
2761
2687
2758
2736
2485
2671
3190
2559
2360
2732
2697
2789
2900
2973
2885
2978
2947
2909
2285
2879
2559
2240
2704
3685
3136
2604
2349
2448
2609
2720
2665
2666
2701
2816
2849
2912
2917
3013
2956
2807
2653
2707
2688
2714
2714
2804
2806
2817
2951
3335
3520
3538
3319
3446
3721
3185
2849
2544
2629
2485
2481
2582
2463
3105
2721
2432
2377
2345
2395
2493
2608
2602
2626
2819
2941
2983
2833
2746
2690
2682
2582
2549
2549
2539
2400
3009
4095
4021
2765
2322
2220
2164
2128
2203
2103
2247
2362
2384
2311
2378
2512
2650
2704
2896
3190
3447
3555
3664
3210
2943
2752
2683
2478
2223
2459
2507
2349
2485
2747
3115
2640
2551
2594
2770
2873
2771
2279
2007
2224
2339
2475
2669
2903
2979
3034
3039
3019
3007
2913
2867
2672
2726
2736
2882
2864
2953
3034
3399
3152
3149
4095
4095
3792
2736
2896
3095
3307
3882
4095
3530
3179
3095
3311
3018
3020
2625
2410
2415
2553
2819
3259
3313
3339
3215
3056
3019
2885
2695
2447
2271
2359
2278
2407
2544
2651
2615
2650
2604
2721
2640
2653
2486
2434
2499
2515
2559
2617
2619
2626
2587
2711
2783
2849
2683
2778
2833
2727
2768
2863
2779
2861
3071
3056
3267
4095
4095
4095
3151
2852
2725
2581
2467
2559
2559
2608
2847
2965
2966
2910
2855
2759
2749
2847
2816
2765
2706
2687
2477
2503
2435
2430
2512
2559
2526
2672
2606
2590
2489
2469
2527
2558
2646
2583
2657
2617
2624
2767
2739
2704
2672
2719
2985
3071
3058
3247
3462
3783
4095
4095
3925
3322
2735
2351
2221
2179
2503
2791
3971
4095
4095
3024
2402
2155
1857
2256
2480
2737
3023
2736
2329
2208
2630
2718
2527
2635
2699
2624
2544
2546
2631
2531
2467
2519
2559
2557
2512
2499
2579
2550
2496
2527
2587
2559
2622
2692
2782
2873
2803
3063
3531
3426
2823
2787
3045
3069
2958
2845
2789
2783
2736
2623
2749
2951
2989
2915
3037
3115
3095
2991
3096
3843
4095
4095
2881
2458
2466
2550
2630
2624
2677
2685
2656
2681
2766
2793
2817
2959
3008
2960
2999
3053
2891
2978
2979
2951
2985
3056
3014
3056
2959
2998
2909
2799
2960
3071
3193
3262
2992
2704
2505
2522
2510
2603
2486
2674
3005
3156
2763
2326
1958
1949
2007
2003
1934
1975
2091
2192
2363
2493
2554
2609
2751
2832
3568
4095
4095
3600
2947
2807
2665
2448
2235
2205
2353
2469
2693
2709
2880
2906
3051
3099
3086
3000
3086
2946
3021
2842
2893
2928
2863
2829
2907
2791
2864
2800
2783
2995
3447
3323
3057
3111
2740
2818
2693
2688
2949
2997
3058
3065
3167
2979
3207
3376
3039
3065
3007
2962
2999
3131
3178
3216
3213
3251
3243
3108
3449
4095
4095
4095
3345
3447
3449
3419
3222
3251
3564
3255
3125
3150
3149
3099
3019
3023
3114
3095
3115
3151
3179
3211
3234
3163
3153
3115
2988
2858
2742
2702
2630
2620
2640
2610
2704
2709
2785
2643
2694
2608
2537
2512
2308
2486
2699
2730
2782
2885
2983
2971
2896
2781
2721
2525
2337
2309
2282
2342
2361
2519
2774
3376
4095
4095
2899
2593
2531
2400
2461
2529
2534
2467
2543
2491
2497
2508
2499
2559
2559
2470
2522
2480
2397
2288
2306
2430
2559
2480
2301
2407
2581
2559
2692
2559
2708
2646
2625
2717
2671
2559
2423
2559
2922
2627
2701
2747
2497
2437
2479
2585
2631
2798
2853
2683
2416
2181
2117
2294
2189
2105
2256
2471
2466
2837
4095
4095
3675
2864
2614
2547
2634
2624
2620
2662
2719
2677
2652
2662
2714
2862
2807
2815
2897
3104
3166
3250
3458
3977
4079
3695
3709
3535
3466
3008
2679
2656
2512
2390
2558
2624
2690
2815
2903
2748
2399
2501
2526
2352
2355
2515
2497
2459
2525
2607
2671
2671
2775
2711
2629
2610
2559
2603
2457
2519
2579
2755
3923
4095
3683
2793
2607
2597
2608
2547
2592
2679
2714
2615
2670
2672
2799
2801
2802
2941
3018
2877
2815
2913
3060
3136
3037
2754
2745
2463
2450
2471
2603
2778
2894
2699
2731
2865
2823
2927
2799
2663
2198
1951
1882
2127
2368
2442
2663
2864
2904
2962
2993
2927
2963
2791
2698
2711
2768
2730
2752
2699
2803
3121
4095
4095
3882
3037
3037
2906
2980
3066
3366
3685
3871
3825
3618
3204
3322
3448
3457
3024
2893
2819
3136
3136
3583
3238
2641
2190
2341
2352
2559
2815
2985
2603
2458
2347
2513
2368
2559
2621
2774
2703
2821
2723
2817
2578
2759
2742
2869
2723
2800
2719
2725
2543
2544
2272
2426
2354
2551
2425
2426
2349
3017
4095
4095
3935
2762
2940
2929
2640
2630
2559
2682
2590
2800
2754
2716
2665
2768
2827
2902
2777
2759
2711
2871
2661
2816
2834
2242
2064
2319
2390
2351
2480
2622
2663
2815
2810
2649
2544
2512
2595
2554
2610
2718
2721
2736
2763
2646
2810
2977
3061
3046
2934
2755
2906
2656
2672
3123
3196
3183
3299
3056
3154
3842
4095
4095
3299
3070
2959
2864
2659
2384
2141
1819
1844
2111
2416
2733
2734
2640
2667
2633
2647
2709
2800
3003
3213
3020
2901
2928
2629
2411
2432
2395
2674
2713
2782
2704
2559
2394
2365
2381
2434
2423
2495
2469
2407
2541
2960
3327
2744
2426
2306
2879
3291
3219
3201
3363
3894
2832
2320
2393
2287
2499
3184
4095
4095
3709
3267
3154
2943
2736
2493
2427
2453
2540
2590
2690
2855
2882
2894
2960
2987
2881
2832
2973
2963
2896
2945
2921
2869
2931
2971
2955
2849
2842
2823
2755
2865
3095
2999
2978
2913
3019
3431
3751
3821
3613
3363
3232
3154
2986
2896
2913
2977
2970
3367
3426
3178
2701
2553
2219
2337
2589
2789
2804
2853
3229
4095
4039
2835
2703
2818
2893
2837
2608
2624
2559
2415
2496
2640
2663
2688
2791
2788
2768
2738
2669
2542
2515
2493
2587
2160
2480
2503
2665
2749
2928
2935
2851
2950
2838
2604
2476
2651
2861
2814
2793
2704
2752
2768
2821
3009
3127
3041
3019
2909
2999
3127
3390
3898
3394
2841
2604
2544
2464
2431
2471
2599
2743
3397
4095
4043
2837
2608
2487
2422
2480
2484
2416
2506
2431
2559
2745
2672
2628
2468
2526
2752
2670
2818
2899
2992
2963
2867
2653
2409
2327
2205
2033
2101
2269
2311
2609
2546
2303
1829
1295
1207
1103
1376
1836
2064
2128
2241
2301
2485
2683
2838
3043
3173
3122
3062
3243
3218
3088
2971
2895
2930
2973
2809
2993
4095
4095
3358
2252
2096
2421
2082
1829
2559
2849
2917
2994
2943
3207
3376
3187
3106
3095
3120
3091
3136
3271
3824
4095
3379
2800
2768
3120
3361
2974
2726
3060
2954
2896
3088
2786
3028
2670
2415
2159
2161
2368
2630
2622
2498
2548
2842
3207
3310
3986
4095
4087
3754
3527
3261
3126
3173
2987
2960
3225
3341
3200
3421
4095
4095
4095
3647
3599
3541
3719
3455
3120
2875
2537
2633
2493
2357
2217
2417
3067
3146
3438
3330
2812
2559
2688
2688
2591
2432
2512
2471
2583
2804
3043
2583
2415
2416
2559
2603
2626
2647
2625
2735
2693
2782
2819
2663
2429
2542
2653
2728
2757
2730
2849
2935
2879
2595
2445
2509
2662
2706
2672
2522
2183
2533
2663
3063
4095
4095
3375
3152
2896
2730
2507
2438
2455
2602
2748
2592
2640
2512
2375
2331
2436
2522
2515
2625
2704
2731
2762
2780
2704
2769
2755
2662
2618
2474
2423
2480
2547
2727
2786
2797
2742
2783
2823
2849
2908
2937
3023
3019
2945
3010
2933
2763
2650
2787
3071
3138
3178
3053
3050
2672
2621
2675
2637
2630
2607
2999
4016
4095
4095
3046
2755
2650
2675
2555
2480
2469
2426
2464
2559
2513
2544
2503
2475
2559
2589
2596
2608
2670
2690
2705
2662
2629
2604
2528
2586
2558
2491
2512
2623
2624
2661
2747
2619
2559
2675
2594
2643
2617
2656
2559
2635
2624
2624
2558
2751
2803
2809
2880
2853
2783
2601
2349
2544
2544
2619
2514
2515
2807
2955
3915
4095
4095
3269
3175
2973
2791
2757
2582
2491
2654
2559
2559
2841
2913
2858
2789
2805
2843
2907
2970
2923
2558
2483
2523
2544
2517
2709
2843
3062
3053
2918
2777
2736
2737
2756
2785
2783
2747
2783
2748
2711
2704
2797
2698
2839
2752
2778
2955
3023
3130
3184
3059
3151
3106
3070
3136
3248
3189
3339
3406
3250
3142
3764
4095
4095
3172
2877
2863
3058
3216
3370
2635
2091
2095
2327
2476
2896
3346
3459
3059
2790
2635
2523
2608
2811
2768
2827
2826
2786
2676
2597
2556
2485
2470
2481
2544
2559
2544
2527
2547
2527
2485
2704
2559
2601
2545
2512
2423
2395
2598
2640
2598
2791
2832
2837
3003
3173
2804
2687
2509
2870
2751
2765
3665
4095
4095
3063
2906
3152
3136
3062
3122
3216
3102
3029
3102
3503
3027
2795
2835
2800
2430
2496
2612
2795
2839
2925
2944
2976
2896
2722
2715
2766
2672
2640
2713
2751
2815
2880
2926
2916
2798
2842
2679
2747
2627
2661
2741
2718
2849
3005
3230
3646
3886
3781
3678
3371
2811
2559
2256
2198
2409
2544
2818
3323
4095
4095
3599
2352
2321
2559
2864
2739
2192
2029
1819
1926
2285
2546
2663
2671
2768
2701
2675
2646
2642
2485
2595
2356
2353
2672
2695
2551
2385
2559
2533
2763
2695
2766
2811
2701
2512
2650
2761
2627
2664
2431
2494
2799
2927
2874
2695
2869
3235
3265
3147
2845
2809
2887
3055
2586
2589
2993
3151
3091
3194
2949
3321
4095
4095
3120
2981
3219
2652
2622
2407
2384
2411
2557
2593
2623
2688
2718
2687
2661
2469
2485
2473
2595
2478
2582
2773
2727
2640
2667
2559
2543
2398
2352
2329
2441
2630
2625
2654
2833
2913
2964
3117
3169
3215
3227
3169
3165
3225
3190
3143
2930
2900
2818
2839
3119
3173
2663
2137
1586
1683
2083
2528
3336
4095
4095
4095
3440
3116
2831
2613
2457
2549
2550
2369
2480
2650
2783
2707
2819
2880
2778
2690
2667
2668
2761
2586
2618
2715
2673
2619
2601
2401
2480
2383
2405
2480
2429
2251
2177
2741
2931
2848
2991
3183
3150
2717
2559
2701
2603
2558
2690
2914
3215
3187
3269
3149
2926
2819
2783
2459
2431
2245
2013
2081
2493
3019
4095
4095
4095
3838
3280
2963
2837
2736
2871
2823
2869
2864
2891
2675
2831
2846
2719
2641
2791
3006
3184
3056
3248
3264
3301
3136
3402
3543
3870
4003
4012
4074
4080
3264
3134
2974
2833
2709
2583
2135
1907
1654
1781
1996
2335
2429
2587
2718
2799
2842
2851
2893
2823
2596
2641
2544
2466
2595
2775
2864
2736
2610
2597
2927
4080
4095
3141
2419
2365
2321
2257
2351
2256
2318
2415
2616
2707
2730
2838
2745
2483
2490
2722
2751
2593
2620
2463
2451
2391
2505
2432
2608
2674
2851
2803
2895
2806
2819
2367
2249
2135
2171
2245
2436
2443
2559
2527
2559
2559
2686
2608
2551
2679
2801
2767
2786
2880
2965
2880
2895
2768
2624
2688
2867
2767
3214
4095
4095
4095
3326
3346
3359
3212
3346
3095
2894
3058
2778
2393
2803
3102
3277
3284
2944
2768
2559
2524
2783
2895
3071
3237
3088
2774
2742
2636
2681
2633
2723
2727
2672
2587
2581
2384
2483
2546
2517
2522
2528
2551
2559
2527
2610
2508
2559
2631
2649
2559
2532
2473
2465
2395
2433
2493
2593
2699
2559
2363
2432
2735
3136
4095
4095
4095
3511
2962
2958
2790
2707
2437
2219
2419
2749
2927
3060
3199
3194
3070
3007
2897
2852
2839
2704
2504
2451
2498
2624
2785
2966
3120
2962
2947
2891
2831
2838
2859
2626
2527
2627
2737
2871
2894
2896
2917
2950
2799
2797
2666
2497
2496
2606
2892
2956
2995
3259
3389
3469
3695
3707
3291
2961
2672
2426
2368
2411
2500
3120
4095
4095
3545
3091
2960
2607
2361
2326
2303
2287
2489
2559
2345
2369
2693
2514
2614
2704
2768
2651
2559
2589
2640
2598
2471
2527
2478
2443
2445
2479
2523
2451
2471
2489
2442
2352
2416
2559
2714
2736
2766
2880
2895
2862
2291
2449
2657
2971
3088
2683
2559
2619
2725
2791
2802
2759
2800
2751
2702
2518
2853
3110
3284
4015
4095
3743
2480
2227
2013
2448
2723
2881
2900
2818
2947
2863
2869
3011
3039
3136
3239
3335
3643
4053
3827
3542
3191
3244
3344
3447
3662
3600
3312
2788
2288
2512
2479
2550
2822
3015
3213
3227
3071
2798
2800
2760
2720
2735
2910
3113
3090
2880
3377
3153
3167
3088
3039
2823
2666
2622
2652
2594
2679
2711
2807
2496
2263
2175
2067
3124
4095
4095
3005
2847
2919
2915
2889
3113
3151
2818
2965
2802
2830
3008
3087
2995
2800
3106
3195
3024
2559
2608
2545
2450
2554
2691
2679
2608
2688
2559
2653
2695
2559
2686
2778
2647
2435
2461
2624
2747
2815
2815
2832
2736
2687
2670
2657
2637
2609
2799
2853
2709
2777
2768
2559
2512
2557
2538
2544
2538
2432
2532
2448
2854
3930
4095
3285
2655
2427
2175
2298
2369
2323
2338
2300
2458
2357
2525
2534
2650
2868
2959
2906
2958
2815
2811
2704
2427
2231
2559
2741
2985
3207
3605
3263
3271
3313
3199
2987
3069
2657
2513
2495
2430
2506
2637
2677
2789
2951
2809
2643
2445
2627
2650
2509
2796
2738
2819
2714
2723
2928
2975
2618
2623
2773
2825
3035
3652
4095
4095
2962
2654
2702
2762
2736
2695
2679
2613
2435
2256
2021
2416
2670
2656
2672
2689
2624
2471
2606
2814
2814
3020
3327
3571
3562
3248
2836
2639
2518
2608
2737
2915
2801
2987
3087
3019
2911
3031
2688
2832
2779
3071
3311
2903
2943
3029
3407
3128
3086
3120
3088
3107
3027
3025
3118
2730
2944
2594
2402
2786
3618
4095
4095
3277
2897
2822
2662
2791
2818
2831
3002
3163
3191
3105
3088
3219
3087
3214
3346
3168
3177
3219
3071
2908
2944
2910
3205
3165
2967
2559
2186
2191
2340
2518
2506
2378
2138
2454
2659
2640
2837
2739
2559
2759
2442
2707
2657
3071
2909
2767
2887
2802
2786
2961
2848
2559
2332
2346
2475
2538
2655
2355
2559
3264
4095
3984
2835
2739
2992
3051
2982
2800
2699
2422
2466
2719
2818
2802
2910
2553
2493
2532
2682
2807
2623
2545
2657
2496
2650
2804
3089
3456
3222
2375
2224
2369
2503
2810
2866
2774
2641
2384
2142
2197
2173
2249
2411
2422
2278
2493
2801
2624
2691
2842
3055
3019
2974
2909
2963
3063
2859
2795
3085
3088
3319
3927
4095
4095
3988
3565
3127
3041
3122
3335
3440
3056
2966
2967
2801
2382
2134
2192
2368
2256
2373
2551
2496
2432
2498
2559
2848
2722
2875
2769
2775
2659
2512
2384
2607
2544
2604
2791
2700
2417
2464
2354
2153
1815
1967
2443
2559
2706
3194
2988
2589
3147
3328
3029
3129
2999
2544
2381
2733
2735
2715
2682
2655
3155
4095
4095
3473
3027
3071
3049
3024
2777
2806
2814
2839
2746
2602
2288
2464
2559
2591
2691
2559
2449
2256
2014
2019
2377
2665
2611
2657
2719
2545
2653
2610
2695
2715
2931
3062
3111
2986
2674
2473
2765
3124
3203
3232
3295
3373
3728
4039
4079
3925
4095
3683
3358
3558
3541
3519
3205
2898
2736
2602
2809
2802
2851
3046
3614
4095
4095
3354
2723
2794
2668
2432
2401
2559
2548
3046
2922
2317
2735
2431
2444
2475
2638
2864
2494
2319
2431
2129
2138
2513
2613
2559
2627
2511
2549
2639
2824
3211
3741
3044
2987
2371
1926
2205
2069
2095
2320
2943
3387
3111
2644
2672
2766
2530
2657
2640
2618
2585
2689
2603
2722
2763
2968
2864
2530
2475
2496
2044
2420
3293
4066
3314
2656
2367
2205
2261
2254
2242
2244
2198
2491
2597
2729
2750
2771
2239
2255
2626
2896
2882
3010
3232
3246
3278
3342
3107
2601
2533
2529
2667
2999
3466
3435
3408
3435
3152
2928
2459
2352
2096
2176
2283
2735
2401
2606
2679
2803
3217
3395
3344
3644
3248
3167
2871
3121
3035
2911
2911
2914
2719
2998
2933
2588
3129
4095
4095
3313
2714
2835
3154
2925
2987
2207
2299
2405
2151
2198
2805
3175
3241
3275
3339
3561
3517
3223
3198
2775
2533
2662
2743
2761
2908
2979
3055
2663
2669
2779
2826
2948
2918
2835
2665
2465
2544
2352
2191
2741
2727
2711
2669
2687
2586
2582
2672
2859
2958
2607
2747
2716
2633
2655
2581
2634
2649
2532
2549
2422
2613
3299
3276
2704
2786
3221
2891
3006
3235
3375
3547
3765
3797
2970
3067
3280
3134
3124
3117
3131
3047
3405
3466
3024
2498
2512
2176
1957
1954
1831
1815
1899
1947
2329
2524
2705
2471
2354
2512
2654
2992
2916
2698
2992
2779
2481
2491
2550
2710
2773
2619
2491
2523
2090
2198
2234
2323
2357
2448
2445
2448
2860
3083
3760
4095
4095
4095
3237
3094
2756
2559
2449
2549
2961
3002
3305
3299
2774
2366
2847
3117
2635
2666
2743
3282
2753
2363
2464
2544
2674
2676
2726
2832
2978
2846
2746
2785
2896
2865
2916
2851
2979
3023
2990
2735
2726
2685
2672
2665
2766
2736
2735
3131
3696
4095
3922
4095
4095
3791
3331
2896
2723
2585
2352
2621
2735
3056
3339
4095
4095
4095
2702
2485
2390
2448
2640
2496
2517
2343
2638
2774
3188
3410
2934
2752
2628
2544
2673
2819
2864
2682
2416
2550
2766
2832
2747
2672
2797
2279
2322
2326
2414
2607
2431
2354
2582
2559
2589
2801
2798
2136
1997
2735
2377
2426
3011
3483
3251
3271
3689
3984
3583
3277
2881
2801
3248
3363
2887
2539
2911
2784
2554
2458
2384
2925
4095
3947
2559
2304
2596
2911
2809
2715
3041
2701
2530
2510
2416
2479
2395
2370
2603
2581
2712
2746
2763
2838
2651
2667
2554
2704
2963
2958
2813
2513
2689
2429
2000
2180
2441
2380
2631
2793
2944
2807
2551
2613
2663
2752
2817
2642
2823
2800
2835
2759
2785
2891
2771
2631
2688
2590
2559
2690
2848
2850
3101
2640
2907
3968
4095
4095
3062
2883
2927
2903
2926
2816
2877
2911
2960
2896
2992
2987
3125
3277
2761
2765
2812
2825
2895
2970
2786
2941
3121
2855
2928
2939
3019
3175
3397
3057
2919
2853
2955
3109
2867
2887
3280
3357
3203
3303
3230
2955
2928
3067
3005
2917
2895
3162
3101
2942
2782
2931
2931
2834
