3679
3149
3247
3103
2897
2731
2541
2384
2694
3647
3827
2467
1807
1481
1218
986
864
850
768
736
712
656
552
544
502
452
448
400
373
400
412
448
346
268
353
294
272
362
282
320
320
301
332
320
364
352
401
424
496
581
648
772
784
828
877
820
824
858
896
941
994
1132
1836
2799
2535
1712
1333
1261
1257
1290
1328
1412
1498
1621
1728
1779
1835
1952
2029
2112
2215
2297
2375
2431
2493
2551
2541
2605
2628
2672
2731
2765
2811
2875
2897
2929
3006
3054
3071
3135
3153
3283
3383
3483
3635
3665
3583
3643
3583
3551
3575
3558
3543
3655
3827
4095
4095
4095
4095
3793
3663
3623
3623
3519
3759
3823
3775
4019
4087
3991
4095
4095
4095
4095
4095
4095
4095
4095
4095
4095
4095
4095
4095
4095
4095
4095
4095
4095
4095
4095
4095
4095
4095
4095
4095
4095
4095
4095
4095
4095
4095
4095
4095
3967
4095
4095
3995
4095
4095
4095
4095
4095
4055
3687
3503
3635
3679
3607
3559
3679
3727
3799
3855
3671
3807
3755
3885
3871
3883
3983
3887
4081
3959
3795
4015
3811
3890
3891
3831
3775
3726
3793
3661
3699
3675
3583
3741
3775
3815
3823
3815
3675
3611
3440
3281
3247
3249
3259
3249
3216
3575
4095
4095
4095
3447
3166
3018
3015
3051
3063
3094
3141
3175
3211
3238
3313
3439
3423
3485
3506
3567
3583
3639
3615
3583
3575
3507
3519
3503
3483
3551
3527
3507
3415
3423
3439
3383
3463
3443
3543
3569
3679
3731
3615
3547
3511
3367
3323
3334
3307
3327
3279
3903
4095
4095
4095
3271
3123
3071
2971
2911
2919
2971
3055
2987
3039
3055
3071
3121
3135
3167
3219
3279
3267
3279
3239
3251
3183
3179
3131
3071
3043
3115
3095
3111
3055
3027
2991
2983
2927
3023
3106
3056
3131
3131
3043
3019
2943
2771
2823
2765
2735
2799
2751
3339
4095
4095
3519
2815
2589
2542
2479
2455
2455
2543
2535
2559
2558
2559
2655
2621
2630
2603
2655
2670
2635
2773
2751
2609
2694
2673
2655
2591
2527
2595
2512
2549
2532
2459
2431
2395
2368
2429
2483
2503
2497
2419
2357
2355
2160
2127
2090
2028
1980
1918
1931
2451
3343
3183
2242
1748
1456
1296
1207
1131
1105
1102
1073
1045
1014
982
912
922
906
836
840
816
806
804
704
656
576
580
524
456
392
304
292
276
272
260
180
160
112
160
128
146
226
121
80
52
0
0
0
0
0
0
192
1274
1728
823
26
0
0
0
0
0
0
0
0
0
24
90
132
214
256
304
400
496
496
576
640
652
668
656
750
832
890
940
953
954
1069
1088
1196
1296
1328
1454
1509
1563
1535
1595
1590
1559
1524
1664
1756
1740
1925
2499
3711
3691
2557
2267
2155
2099
2175
2257
2335
2443
2465
2559
2559
2736
2783
2815
2875
2903
3015
3103
3207
3271
3327
3375
3311
3469
3519
3547
3559
3531
3647
3671
3634
3679
3647
3735
3935
3959
4095
4095
4095
4095
4063
3967
4023
4079
4047
4019
4007
4095
4095
4095
4095
4095
4095
4031
3927
3999
3967
4095
4031
4095
4095
4095
4095
4095
4095
4095
4095
4095
4095
4095
4095
4095
4095
4095
4095
4095
4095
4095
4095
4095
4095
4095
4095
4095
4095
4095
4095
4095
4095
4095
4095
4095
4095
4095
4095
4095
4095
4095
4095
4095
4095
4095
4095
4095
4095
4095
4095
4095
4095
4095
4095
4095
4095
4095
4095
4095
4095
4095
4095
4095
4095
4095
4095
4095
4095
4095
4095
4095
4095
4095
4095
4095
4095
4095
4095
4095
4095
4095
4095
4095
4095
4095
4095
4083
3903
3951
3979
4095
4095
4095
4095
4095
3767
3653
3475
3451
3431
3423
3407
3439
3443
3471
3511
3519
3431
3527
3547
3627
3507
3567
3571
3631
3543
3566
3691
3511
3539
3557
3495
3435
3427
3408
3487
3455
3283
3463
3519
3479
3535
3367
3367
3351
3151
3015
3101
3103
3056
2961
3639
4095
4095
4051
3027
2885
2735
2686
2659
2639
2647
2705
2767
2759
2832
2833
2751
2811
2871
2810
2839
2869
2960
2919
2903
2893
2896
2875
2855
2899
2891
2830
2855
2838
2799
2862
2823
2864
2931
2949
2879
3024
2885
2878
2863
2783
2679
2719
2757
2733
2783
3478
4095
4095
3255
2747
2559
2479
2478
2453
2477
2498
2543
2595
2598
2617
2641
2703
2767
2783
2803
2847
2910
2928
2941
2895
2886
2919
2893
2871
2919
2895
2879
2851
2870
2871
2831
2855
2899
2963
2963
3007
3035
2975
2975
2863
2779
2757
2769
2703
2727
2947
4023
4095
4095
2943
2673
2587
2531
2500
2487
2475
2559
2559
2559
2627
2631
2647
2691
2715
2726
2779
2727
2732
2867
2779
2771
2769
2755
2791
2781
2799
2787
2775
2774
2771
2759
2815
2783
2815
2851
2865
2927
2827
2830
2790
2647
2551
2655
2559
2613
2647
3183
4095
4095
3071
2597
2446
2331
2352
2361
2383
2413
2383
2402
2439
2431
2491
2493
2491
2540
2559
2519
2551
2638
2673
2640
2667
2597
2623
2583
2621
2702
2629
2583
2635
2610
2591
2559
2637
2722
2783
2786
2742
2683
2647
2645
2542
2545
2507
2503
2512
2746
3527
4095
4095
2879
2527
2409
2303
2281
2343
2411
2397
2435
2428
2495
2544
2519
2583
2539
2583
2661
2690
2687
2704
2710
2715
2711
2717
2695
2723
2735
2737
2677
2699
2715
2719
2715
2735
2763
2827
2879
2939
2999
2959
2939
2911
2791
2737
2739
2747
2607
2549
3071
4095
4095
4083
2919
2655
2543
2559
2543
2554
2589
2595
2623
2609
2704
2699
2746
2751
2769
2791
2770
2737
2867
2971
2929
2870
2795
2811
2855
2885
2863
2847
2819
2809
2831
2813
2823
2781
2835
2947
2893
2983
3021
2911
2851
2805
2693
2715
2294
2647
2626
2724
3425
4095
4095
2994
2559
2498
2464
2447
2406
2420
2495
2512
2493
2512
2581
2609
2612
2650
2579
2697
2688
2688
2758
2862
2785
2754
2727
2661
2532
2512
2594
2630
2786
2768
2767
2750
2665
2771
2896
2870
2899
2928
2927
2785
2827
2682
2611
2650
2622
2610
2623
3033
4095
4095
3373
2707
2608
2434
2400
2431
2401
2411
2419
2464
2537
2544
2543
2559
2594
2608
2607
2640
2711
2703
2738
2746
2767
2775
2741
2753
2795
2811
2762
2770
2723
2769
2800
2800
2751
2814
2893
2885
2949
2918
2899
2895
2807
2749
2713
2737
2719
2711
2799
3575
4095
4095
3171
2780
2559
2474
2496
2489
2498
2491
2506
2587
2637
2640
2685
2704
2704
2707
2704
2747
2800
2808
2836
2847
2870
2831
2814
2815
2765
2775
2798
2800
2814
2821
2800
2810
2831
2885
2927
2954
3008
2908
2955
2871
2781
2762
2763
2742
2704
2653
3350
4095
4095
3394
2815
2680
2651
2559
2559
2601
2634
2671
2671
2679
2737
2734
2799
2815
2832
2832
2831
2904
2863
2910
2905
2839
2934
2917
2854
2897
2883
2839
2800
2842
2928
2919
2901
2897
3001
3006
3174
3148
2951
3017
2917
2813
2747
2800
2780
2769
3120
4095
4095
4095
2923
2718
2593
2509
2551
2511
2539
2624
2582
2589
2644
2612
2672
2691
2692
2698
2709
2674
2747
2768
2794
2782
2756
2750
2735
2677
2736
2711
2779
2698
2707
2661
2673
2640
2800
2819
2801
2834
2730
2713
2689
2608
2559
2480
2534
2559
2587
3023
4095
4095
3287
2601
2400
2340
2354
2287
2304
2416
2405
2420
2421
2435
2512
2459
2580
2559
2598
2550
2559
2682
2667
2655
2645
2673
2639
2645
2653
2650
2639
2640
2643
2639
2646
2657
2683
2736
2754
2789
2815
2800
2778
2760
2671
2651
2677
2686
2681
2675
3151
4095
4095
3859
2892
2706
2541
2559
2540
2559
2590
2624
2633
2663
2653
2753
2768
2751
2781
2821
2782
2928
2963
2911
2926
2907
2919
2918
2875
2877
2909
2873
2861
2877
2845
2866
2891
2864
2943
2947
3012
3033
2955
2965
2928
2743
2743
2687
2750
2733
2770
3507
4095
4095
3227
2822
2628
2591
2586
2597
2608
2583
2666
2607
2643
2729
2748
2723
2737
2768
2789
2838
2866
2832
2897
2908
2906
2890
2896
2894
2906
2832
2864
2878
2848
2833
2847
2832
2902
2926
2971
2970
3027
2944
2857
2823
2736
2672
2659
2704
2631
2733
3502
4095
4095
3088
2646
2489
2510
2473
2409
2467
2512
2509
2536
2497
2578
2625
2601
2626
2625
2611
2635
2677
2707
2779
2731
2714
2686
2786
2735
2706
2694
2738
2729
2736
2690
2693
2683
2704
2809
2873
2829
2914
2855
2826
2767
2659
2624
2609
2599
2608
2641
3130
4095
4095
3422
2722
2593
2465
2422
2456
2475
2502
2507
2610
2580
2640
2736
2719
2743
2766
2795
2817
2827
2885
2896
2911
2915
2891
2874
2887
2887
2892
2911
2914
2894
2886
2910
2903
2846
2944
3008
3010
3109
3094
3051
2999
2870
2832
2817
2807
2773
2832
3117
4095
4095
4095
3039
2768
2651
2622
2558
2608
2655
2641
2699
2727
2719
2763
2714
2781
2851
2864
2878
2928
2947
2923
2922
2970
2929
2958
2964
2885
2906
2928
2893
2859
2923
2896
2907
2856
2891
2995
2986
3033
3023
2978
2959
2847
2763
2641
2669
2704
2702
2821
3748
4095
4095
2958
2672
2559
2447
2432
2414
2448
2464
2503
2526
2483
2622
2550
2551
2582
2594
2559
2646
2689
2711
2718
2669
2758
2705
2719
2704
2631
2741
2717
2726
2640
2630
2651
2630
2698
2786
2774
2742
2873
2751
2713
2718
2581
2609
2526
2559
2558
2512
3019
4095
4095
3472
2683
2483
2352
2327
2347
2326
2378
2377
2422
2426
2459
2499
2521
2507
2555
2592
2609
2641
2663
2679
2683
2679
2724
2717
2739
2725
2707
2734
2722
2768
2785
2800
2811
2784
2824
2877
2955
2992
3024
2960
2941
2946
2814
2778
2765
2755
2747
2758
3184
4095
4095
3869
2935
2717
2607
2590
2589
2583
2558
2640
2704
2724
2705
2780
2779
2850
2840
2891
2881
2857
2957
3031
3006
2976
2981
2966
2954
2882
2939
3002
2971
3007
2915
2900
2974
2910
2978
3071
3023
3082
3167
3049
2997
3024
2931
2853
2794
2758
2736
2832
3335
4095
4095
3569
2842
2687
2544
2523
2531
2535
2559
2583
2638
2651
2675
2674
2736
2695
2730
2807
2770
2750
2800
2819
2859
2867
2787
2763
2798
2811
2821
2832
2768
2801
2814
2813
2806
2726
2750
2896
2911
2966
2928
2832
2857
2795
2640
2658
2699
2602
2650
2651
3204
4095
4095
3174
2605
2522
2389
2374
2329
2448
2448
2479
2485
2518
2496
2540
2595
2598
2559
2592
2551
2665
2690
2722
2746
2667
2727
2769
2672
2715
2699
2718
2765
2715
2713
2691
2729
2707
2746
2804
2841
2894
2926
2818
2896
2816
2702
2658
2649
2655
2640
2630
2923
4095
4095
3927
2875
2627
2458
2455
2448
2453
2479
2517
2579
2672
2666
2727
2759
2777
2777
2822
2819
2874
2943
2972
2914
2912
2930
2910
2921
2902
2839
2915
2930
2922
2899
2895
2905
2906
2877
2864
2991
3047
3110
3093
3037
2982
2983
2827
2723
2755
2779
2736
2789
3506
4095
4095
3374
2714
2661
2559
2545
2502
2551
2559
2628
2626
2592
2642
2678
2706
2752
2755
2757
2805
2838
2865
2906
2871
2877
2880
2878
2833
2863
2885
2855
2925
2923
2824
2827
2859
2841
2857
2973
2950
2938
3087
3022
2935
2853
2765
2720
2701
2707
2723
2730
3238
4095
4095
3401
2734
2626
2439
2442
2495
2455
2502
2509
2559
2522
2559
2656
2626
2658
2678
2611
2688
2795
2778
2807
2791
2789
2807
2813
2780
2804
2796
2775
2750
2731
2800
2763
2738
2722
2773
2822
2864
2921
2960
2831
2834
2799
2695
2625
2608
2609
2646
2697
3045
4095
4095
3575
2781
2559
2386
2387
2387
2429
2442
2451
2495
2460
2494
2589
2603
2494
2463
2590
2655
2695
2710
2752
2741
2754
2727
2750
2790
2735
2705
2709
2704
2736
2721
2650
2715
2757
2751
2746
2829
2801
2768
2896
2864
2832
2787
2672
2675
2672
2674
2667
2668
2959
4095
4095
3939
2880
2644
2480
2413
2427
2442
2471
2512
2538
2559
2643
2683
2691
2727
2732
2783
2820
2821
2861
2901
2918
2875
2886
2922
2896
2915
2841
2917
2937
2896
2903
2955
2939
2905
2910
2896
2954
3056
3071
3119
3109
3056
3008
2928
2918
2867
2837
2833
2864
2981
3883
4095
4095
3222
2832
2725
2630
2605
2605
2616
2645
2647
2675
2725
2754
2754
2777
2800
2789
2832
2838
2864
2893
2944
2923
2909
2833
2892
2903
2910
2890
2874
2913
2876
2865
2886
2851
2832
2852
2898
2938
2974
3025
2985
2912
2982
2886
2767
2699
2741
2755
2706
2807
3555
4095
4095
3065
2717
2582
2463
2511
2490
2467
2493
2608
2559
2559
2625
2620
2654
2659
2631
2698
2734
2734
2787
2789
2736
2749
2731
2774
2775
2736
2755
2724
2730
2713
2650
2742
2740
2747
2674
2710
2826
2799
2876
2863
2749
2790
2694
2649
2593
2547
2583
2539
2608
3063
4095
4095
3382
2630
2458
2347
2349
2295
2335
2368
2351
2446
2457
2511
2463
2513
2550
2522
2526
2559
2626
2633
2661
2666
2718
2673
2646
2642
2639
2654
2670
2649
2619
2645
2646
2641
2606
2667
2670
2666
2715
2742
2758
2844
2767
2730
2687
2613
2582
2559
2557
2585
2555
2811
3843
4095
3885
2820
2550
2384
2331
2397
2451
2461
2501
2508
2554
2642
2663
2688
2718
2704
2735
2815
2831
2897
2938
2928
2871
2861
2881
2876
2891
2855
2842
2931
2880
2846
2896
2858
2821
2844
2879
2877
2943
2951
2987
3027
2967
2983
2943
2815
2816
2810
2786
2799
2748
3147
4095
4095
4036
2943
2768
2613
2559
2559
2606
2638
2623
2659
2688
2672
2710
2706
2737
2809
2795
2870
2892
2898
2941
2960
2950
2933
2895
2866
2896
2930
2884
2896
2928
2915
2878
2853
2830
2868
2874
2891
2944
2979
3065
3083
2933
2971
2864
2769
2710
2707
2730
2732
2725
3269
4095
4095
3312
2693
2599
2479
2466
2458
2480
2506
2559
2544
2597
2634
2655
2647
2625
2665
2633
2704
2753
2753
2781
2785
2705
2721
2723
2806
2725
2769
2768
2750
2722
2771
2739
2736
2730
2745
2711
2767
2878
2803
2891
2939
2823
2787
2707
2639
2613
2606
2640
2589
2736
3342
4095
4095
3142
2679
2529
2432
2395
2419
2433
2451
2502
2502
2515
2608
2614
2610
2586
2657
2624
2656
2704
2749
2766
2717
2747
2773
2752
2751
2753
2752
2739
2747
2736
2743
2717
2743
2734
2693
2731
2794
2839
2860
2896
2929
2896
2926
2838
2755
2715
2723
2740
2751
2768
3286
4095
4095
3583
2880
2672
2624
2608
2631
2629
2672
2654
2688
2725
2738
2794
2824
2791
2865
2857
2868
2885
2881
2964
2970
2937
2903
2908
2899
2858
2946
2951
2906
2922
2903
2918
2917
2879
2905
2896
2887
2998
3056
2999
3114
3089
3027
2965
2830
2788
2782
2757
2717
2793
3216
4095
4095
3778
2837
2672
2619
2534
2559
2559
2642
2624
2666
2675
2716
2687
2722
2778
2794
2800
2864
2834
2848
2850
2833
2846
2845
2879
2901
2851
2833
2838
2803
2915
2883
2851
2807
2805
2800
2841
2830
2838
2919
2925
2998
2928
2864
2895
2715
2738
2697
2663
2688
2677
2846
3786
4095
4095
2928
2699
2502
2431
2426
2391
2462
2470
2521
2525
2559
2512
2583
2589
2640
2583
2609
2610
2711
2703
2733
2704
2723
2708
2718
2718
2676
2687
2682
2689
2739
2698
2737
2650
2651
2662
2689
2704
2706
2800
2800
2849
2843
2800
2814
2757
2647
2591
2637
2591
2642
2657
3152
4095
4095
3302
2805
2538
2467
2438
2332
2432
2501
2512
2485
2559
2587
2519
2593
2634
2717
2679
2719
2752
2769
2789
2817
2774
2800
2762
2807
2789
2800
2800
2817
2807
2800
2832
2819
2797
2742
2845
2813
2880
2894
2945
2999
3067
3099
3031
3027
2933
2879
2832
2847
2845
2805
2815
3300
4095
4095
3809
2927
2793
2644
2627
2655
2622
2610
2689
2702
2736
2755
2751
2800
2839
2864
2897
2922
2883
2919
2944
2979
2951
2954
2928
2882
2883
2938
2914
2879
2917
2925
2822
2895
2929
2847
2923
2863
2850
2845
2851
2921
2973
3070
3118
2998
3002
2838
2743
2717
2731
2817
2807
2791
3459
4095
4095
3277
2736
2609
2558
2513
2533
2491
2544
2579
2597
2669
2681
2704
2704
2715
2738
2691
2759
2811
2817
2800
2816
2829
2822
2777
2759
2737
2736
2803
2778
2809
2749
2730
2814
2739
2722
2702
2702
2731
2767
2852
2791
2895
2911
2787
2757
2699
2599
2608
2645
2598
2578
2627
3205
4095
4095
3202
2661
2480
2389
2400
2327
2445
2403
2384
2433
2462
2429
2635
2526
2559
2507
2544
2618
2581
2625
2643
2666
2702
2553
2637
2615
2645
2663
2618
2646
2679
2593
2634
2693
2631
2681
2655
2559
2670
2662
2691
2731
2721
2817
2855
2806
2711
2750
2606
2592
2617
2619
2623
2593
2866
3999
4095
3803
2826
2586
2410
2386
2379
2386
2423
2484
2501
2512
2559
2618
2656
2661
2691
2667
2736
2766
2816
2880
2902
2847
2834
2921
2864
2881
2875
2882
2875
2906
2865
2992
2945
2936
2934
2913
2889
2846
2907
2951
2970
3050
3063
3107
3111
3067
3071
2963
2898
2836
2831
2851
2853
2811
3328
4095
4095
3718
2832
2749
2637
2621
2597
2608
2581
2611
2619
2715
2773
2773
2834
2829
2829
2870
2864
2878
2890
2912
2982
2912
2907
2920
2887
2928
2880
2901
2894
2906
2877
2837
2905
2883
2862
2850
2828
2800
2864
2921
2929
2985
3019
2924
2871
2827
2702
2699
2653
2628
2621
2581
2903
4077
4095
3626
2622
2436
2313
2224
2226
2193
2167
2218
2191
2175
2147
2158
2155
2133
2055
2009
1950
1917
1894
1887
1854
1680
1650
1480
1501
1415
1149
979
1136
1041
973
851
794
681
510
447
368
251
218
189
103
129
30
0
0
0
0
0
0
0
0
0
0
0
0
0
0
0
0
0
0
0
0
0
0
0
0
0
0
0
0
0
0
0
0
0
0
0
0
0
0
0
0
0
0
0
0
0
0
0
0
0
0
0
0
0
0
0
0
0
0
0
0
0
0
0
0
0
0
0
0
1070
1226
249
0
0
0
0
27
122
352
529
588
734
908
1023
1190
1266
1402
1503
1648
1714
1903
2010
2099
2134
2187
2251
2304
2417
2447
2528
2610
2657
2686
2727
2837
2870
2900
2996
3087
3120
3194
3376
3457
3600
3699
3670
3735
3632
3600
3654
3740
3834
3865
3994
4095
4095
4095
4095
4095
4095
4095
4095
4095
4095
4095
4095
4095
4095
4095
4095
4095
4095
4095
4095
4095
4095
4095
4095
4095
4095
4095
4095
4095
4095
4095
4095
4095
4095
4095
4095
4095
4095
4095
4095
4095
4095
4095
4095
4095
4095
4095
4095
4095
4095
4095
4095
4095
4095
4095
4095
4095
4095
4095
4095
4095
4095
4095
4095
4095
4095
4095
4095
4095
4095
4095
4095
4095
4095
4095
4095
4095
4095
4095
4095
4095
4095
4095
4095
4095
4095
4095
4095
4095
4095
4095
4095
4095
4095
4095
4095
4095
4095
4095
4095
4095
4095
4095
4095
4095
4095
4095
4095
4095
4095
4095
4095
4095
4095
4095
4095
4095
4095
4095
4095
4095
4095
4095
4095
4095
4095
4095
4095
4095
4095
4095
4095
4095
4095
4095
4095
4095
4095
4095
4095
4095
4095
4095
4095
4095
4095
4095
4095
4095
4095
4095
4095
4095
4095
4095
4095
4095
4095
4095
4095
4095
4065
3985
3885
3883
3907
3856
4007
4095
4095
4095
4095
3900
3565
3466
3462
3394
3376
3421
3393
3469
3508
3565
3499
3557
3510
3543
3610
3539
3610
3611
3635
3632
3557
3578
3539
3440
3471
3491
3431
3472
3393
3438
3443
3355
3423
3393
3345
3309
3298
3401
3454
3429
3527
3500
3415
3361
3282
3199
3152
3115
3150
3126
3185
3831
4095
4095
4047
3107
2959
2873
2841
2875
2834
2880
2889
2919
2915
2943
2941
3046
3058
3022
3071
3129
3156
3088
3138
3221
3184
3154
3097
3103
3083
3088
3131
3131
3062
3081
3103
3039
3024
3021
2949
3007
3041
3102
3119
3183
3206
3119
3118
3021
2926
2900
2836
2797
2874
2829
3040
3904
4095
4095
3143
2821
2606
2601
2559
2583
2559
2559
2601
2611
2701
2690
2696
2769
2682
2719
2738
2784
2736
2762
2829
2768
2810
2805
2802
2715
2773
2727
2763
2793
2752
2705
2779
2773
2781
2691
2755
2706
2724
2843
2839
2839
2895
2832
2875
2727
2667
2638
2634
2606
2630
2625
2912
3791
4095
4063
2896
2624
2457
2393
2320
2410
2423
2431
2373
2487
2537
2543
2589
2543
2597
2609
2608
2633
2646
2646
2671
2689
2695
2674
2687
2704
2703
2729
2725
2711
2769
2794
2763
2813
2819
2832
2827
2832
2907
3007
3024
3033
3132
3071
3090
3045
2912
2879
2889
2885
2864
2855
3071
4053
4095
4095
3408
2955
2795
2714
2683
2666
2758
2752
2759
2769
2849
2827
2864
2890
2902
2918
2951
2954
2977
2978
2955
2960
2948
2960
3007
2929
2928
2928
2865
2910
2947
2960
2933
2939
2857
2887
2914
2878
2867
2881
2983
2973
3039
3025
3008
3009
2871
2759
2783
2747
2742
2735
2736
3323
4095
4095
3453
2786
2681
2513
2506
2498
2510
2551
2544
2531
2634
2659
2673
2694
2709
2736
2678
2707
2766
2771
2766
2805
2802
2734
2782
2816
2803
2752
2755
2785
2790
2799
2730
2711
2733
2740
2713
2727
2722
2703
2839
2858
2870
2850
2816
2795
2725
2635
2640
2597
2501
2551
2624
2832
4011
4095
4045
2803
2559
2334
2321
2357
2339
2409
2419
2427
2437
2413
2496
2559
2559
2541
2464
2491
2603
2628
2596
2617
2693
2602
2649
2599
2559
2699
2647
2590
2613
2690
2651
2613
2613
2640
2647
2601
2614
2597
2666
2736
2736
2803
2837
2741
2779
2813
2677
2622
2599
2637
2655
2627
2708
3342
4095
4095
3237
2719
2534
2443
2417
2410
2475
2517
2525
2544
2625
2673
2704
2720
2790
2819
2807
2848
2870
2877
2928
2950
2928
2937
2922
2871
2933
2917
2922
2921
2933
2906
2970
2940
2965
2961
2926
2935
2920
2931
2893
2928
3036
3045
3063
3162
3034
2997
3070
2923
2816
2837
2822
2814
2779
2986
4076
4095
4095
3137
2800
2654
2583
2521
2591
2595
2559
2671
2651
2667
2731
2695
2768
2809
2803
2819
2839
2867
2858
2903
2864
2817
2867
2874
2831
2825
2859
2896
2857
2873
2838
2855
2871
2850
2831
2831
2834
2764
2846
2929
2916
2947
3006
2928
2928
2937
2792
2689
2690
2703
2731
2679
2674
3415
4095
4095
3216
2625
2531
2460
2449
2374
2440
2427
2474
2493
2550
2525
2533
2602
2559
2598
2631
2608
2622
2681
2672
2711
2687
2687
2685
2692
2661
2687
2697
2702
2685
2679
2641
2709
2691
2654
2670
2654
2640
2688
2665
2719
2779
2736
2857
2773
2751
2754
2688
2633
2544
2604
2627
2559
2673
3165
4095
4095
3247
2735
2496
2362
2399
2400
2411
2419
2468
2411
2480
2559
2589
2559
2592
2614
2645
2677
2690
2707
2735
2751
2767
2737
2751
2729
2749
2759
2797
2815
2808
2798
2825
2800
2790
2801
2772
2832
2852
2835
2831
2896
2991
2969
3008
3088
2995
3027
2992
2896
2849
2851
2833
2859
2861
2928
3776
4095
4095
3396
2882
2711
2592
2629
2624
2624
2674
2672
2715
2737
2753
2802
2848
2837
2858
2830
2874
2887
2911
2931
2917
2949
2923
2931
2914
2906
2899
2885
2837
2876
2973
2906
2906
2930
2889
2879
2880
2909
2880
2877
2911
2989
3071
3051
3104
3047
3002
2960
2847
2768
2771
2794
2805
2817
3226
4095
4095
3814
2890
2720
2559
2384
2462
2559
2515
2599
2637
2641
2667
2686
2729
2694
2714
2704
2694
2778
2787
2767
2802
2765
2768
2800
2729
2784
2799
2769
2786
2772
2768
2745
2741
2753
2751
2714
2658
2721
2647
2734
2763
2791
2798
2891
2811
2775
2743
2643
2559
2610
2559
2558
2541
2554
2905
4095
4095
3493
2702
2448
2359
2307
2215
2288
2336
2314
2362
2401
2358
2446
2459
2490
2478
2502
2519
2525
2602
2585
2604
2659
2627
2598
2640
2619
2609
2637
2587
2667
2642
2613
2642
2625
2635
2625
2615
2626
2630
2607
2610
2641
2748
2743
2775
2822
2786
2803
2768
2665
2640
2633
2660
2672
2669
2795
3533
4095
4095
3191
2752
2633
2515
2488
2523
2587
2608
2621
2658
2688
2701
2737
2815
2823
2857
2864
2845
2837
2896
2944
2918
2944
2919
2883
2896
2867
2879
2896
2927
2925
2938
2896
2907
2864
2867
2880
2897
2839
2827
2855
2859
2879
2958
2979
3062
2981
2945
2928
2843
2718
2703
2759
2749
2710
2867
3649
4095
4095
3213
2691
2608
2550
2549
2528
2559
2550
2619
2635
2663
2673
2687
2721
2767
2720
2764
2801
2847
2847
2864
2861
2847
2736
2837
2835
2864
2798
2800
2813
2869
2823
2815
2811
2800
2789
2802
2805
2765
2736
2770
2826
2866
2958
2928
2877
2891
2815
2797
2719
2639
2651
2675
2655
2753
3357
4095
4095
3219
2753
2506
2417
2401
2435
2478
2379
2416
2543
2511
2559
2593
2579
2608
2631
2611
2675
2663
2657
2786
2737
2750
2771
2769
2733
2785
2753
2789
2755
2800
2781
2759
2759
2757
2753
2775
2713
2752
2732
2771
2830
2845
2847
2943
2933
2899
2892
2735
2785
2767
2758
2699
2686
2755
3046
4095
4095
4021
2938
2689
2544
2499
2495
2496
2494
2557
2602
2629
2649
2665
2668
2761
2774
2720
2768
2805
2843
2854
2867
2871
2875
2914
2960
2926
2930
2963
2963
2959
2938
2975
2973
2934
2974
2960
2998
2963
3023
2998
3020
3150
3131
3152
3184
3131
3134
3099
2931
2899
2925
2927
2885
2827
3143
4095
4095
4095
3116
2858
2705
2605
2625
2654
2643
2703
2704
2685
2724
2770
2787
2798
2811
2827
2839
2847
2881
2882
2864
2898
2864
2879
2831
2827
2799
2885
2883
2864
2870
2934
2859
2848
2837
2837
2816
2800
2809
2784
2846
2935
2980
3005
2913
2846
2815
2736
2697
2661
2627
2679
2653
2853
3785
4095
4095
2891
2593
2374
2369
2356
2403
2289
2410
2373
2429
2463
2415
2462
2480
2494
2473
2437
2539
2529
2529
2555
2554
2511
2507
2515
2514
2537
2534
2523
2480
2502
2559
2449
2448
2491
2467
2461
2452
2432
2480
2583
2593
2672
2637
2610
2544
2544
2446
2417
2384
2387
2415
2379
2559
3311
4095
4095
2896
2473
2221
2227
2211
2175
2252
2275
2274
2293
2384
2342
2377
2415
2448
2484
2486
2434
2489
2539
2579
2602
2587
2559
2625
2602
2551
2630
2603
2663
2613
2644
2624
2606
2672
2683
2627
2631
2559
2656
2659
2686
2704
2755
2735
2826
2896
2819
2813
2736
2671
2677
2675
2654
2663
2638
2938
4005
4095
4095
3057
2762
2608
2544
2555
2602
2626
2646
2670
2739
2752
2799
2843
2858
2899
2883
2902
2985
2971
2945
3067
2993
3023
3010
2977
2964
2975
2989
2999
2991
2989
2958
2953
2953
2893
2921
2919
2895
2910
2916
2877
2832
2969
2971
3031
3052
2991
2951
2993
2890
2798
2688
2697
2672
2698
2736
3409
4095
4095
3322
2645
2544
2469
2438
2423
2396
2383
2431
2452
2523
2516
2510
2543
2531
2516
2608
2597
2544
2624
2659
2630
2647
2649
2611
2601
2604
2559
2622
2624
2559
2617
2557
2597
2583
2637
2590
2525
2559
2505
2549
2512
2623
2674
2686
2736
2647
2591
2606
2447
2429
2455
2414
2406
2434
2582
3239
4095
4095
2839
2481
2240
2222
2245
2229
2201
2252
2277
2365
2317
2341
2422
2409
2422
2432
2482
2464
2528
2547
2559
2586
2614
2534
2594
2590
2559
2625
2624
2554
2640
2624
2604
2633
2661
2597
2630
2659
2614
2673
2586
2638
2727
2736
2775
2805
2850
2866
2819
2799
2750
2653
2637
2675
2697
2672
2712
3150
4095
4095
3657
2876
2678
2496
2511
2526
2529
2559
2617
2620
2675
2715
2727
2816
2864
2896
2895
2914
2923
2966
3008
2991
3041
3053
3043
3056
3024
2997
3056
3056
3024
3094
3081
3091
3087
3093
3094
3086
3092
3094
3027
3088
3066
3053
3181
3186
3245
3343
3253
3244
3209
3045
3014
3035
3010
3013
3024
3009
3684
4095
4095
3907
3071
2921
2800
2762
2743
2747
2775
2783
2862
2861
2919
2905
2957
2986
2962
2975
3041
3050
3037
3017
3043
3102
3087
3059
3044
3029
3062
2974
3024
3024
3038
3099
3051
3055
2991
2987
2978
2992
3013
2944
2957
2940
3054
3111
3113
3156
3088
3057
3006
2891
2832
2800
2801
2826
2855
2852
3474
4095
4095
3503
2799
2597
2593
2503
2510
2490
2544
2544
2607
2559
2591
2659
2703
2690
2674
2665
2683
2768
2775
2779
2813
2774
2826
2771
2771
2769
2772
2807
2817
2777
2767
2791
2757
2757
2803
2768
2736
2778
2761
2700
2751
2752
2818
2864
2911
2939
2894
2898
2882
2823
2718
2718
2701
2675
2699
2706
3049
4095
4095
3866
2891
2671
2521
2481
2480
2508
2498
2544
2559
2627
2657
2655
2699
2736
2771
2761
2809
2800
2858
2901
2887
2927
2985
2928
2914
2925
2951
2951
2960
2925
2958
2951
2967
2948
2919
2954
2935
2899
2955
2896
2892
2896
2877
2925
2926
3008
3034
3082
3141
3035
3041
3031
2895
2831
2841
2803
2801
2832
2975
3823
4095
4095
3273
2718
2617
2591
2543
2579
2559
2597
2603
2641
2695
2715
2713
2733
2807
2802
2798
2832
2837
2853
2895
2863
2901
2868
2862
2849
2813
2826
2832
2819
2864
2859
2864
2896
2805
2831
2847
2845
2817
2786
2761
2710
2817
2819
2869
2915
2957
2972
2865
2853
2783
2704
2700
2647
2640
2626
2378
2790
4095
4095
4095
2864
2647
2478
2386
2398
2381
2454
2425
2432
2481
2511
2595
2587
2544
2559
2598
2631
2633
2622
2702
2709
2692
2713
2697
2695
2690
2688
2695
2740
2693
2718
2722
2733
2757
2767
2718
2691
2662
2720
2743
2703
2703
2732
2761
2810
2805
2928
2947
2874
2809
2832
2761
2733
2646
2710
2703
2666
2709
3235
4095
4095
3487
2766
2609
2459
2434
2501
2494
2497
2539
2544
2559
2609
2650
2640
2714
2718
2703
2704
2726
2787
2851
2837
2854
2836
2837
2844
2845
2890
2830
2879
2897
2887
2869
2880
2880
2894
2906
2849
2864
2861
2855
2797
2885
2864
2830
2939
2946
2992
2999
3069
3007
3005
2944
2865
2796
2819
2795
2800
2766
2935
3837
4095
4095
3217
2797
2621
2533
2511
2518
2559
2592
2653
2659
2682
2672
2715
2800
2748
2763
2814
2829
2885
2864
2851
2903
2876
2865
2874
2852
2886
2829
2827
2864
2910
2813
2828
2885
2837
2817
2864
2816
2796
2804
2775
2789
2806
2812
2795
2879
2941
2971
2903
2897
2770
2719
2670
2667
2651
2623
2559
2718
3415
4095
4095
3126
2667
2534
2384
2384
2401
2416
2409
2423
2439
2497
2533
2534
2607
2559
2555
2608
2624
2672
2678
2678
2662
2736
2741
2672
2695
2718
2718
2729
2697
2731
2711
2733
2779
2727
2733
2724
2737
2726
2720
2713
2656
2752
2755
2806
2802
2866
2967
2868
2873
2832
2733
2676
2677
2678
2685
2654
2738
3393
4095
4095
3327
2772
2559
2432
2480
2464
2451
2480
2512
2551
2603
2624
2665
2694
2699
2757
2753
2775
2771
2854
2871
2872
2880
2899
2870
2847
2853
2864
2875
2865
2892
2893
2871
2951
2913
2913
2896
2879
2797
2834
2913
2877
2881
2868
2831
2928
3015
3038
3057
3082
3017
2992
2910
2768
2832
2778
2826
2803
2789
3213
4095
4095
3952
2937
2695
2603
2559
2546
2503
2581
2607
2666
2687
2706
2710
2727
2733
2727
2773
2813
2870
2842
2890
2899
2857
2871
2823
2811
2842
2847
2854
2854
2810
2862
2871
2843
2817
2800
2794
2832
2803
2766
2771
2822
2710
2771
2799
2853
2883
2912
2902
2907
2875
2827
2717
2649
2704
2688
2650
2624
2691
3209
4095
4095
3445
2704
2611
2416
2377
2322
2416
2448
2428
2465
2517
2475
2590
2548
2531
2559
2627
2559
2657
2665
2649
2696
2686
2736
2734
2673
2651
2687
2707
2746
2690
2742
2736
2734
2669
2711
2686
2625
2669
2684
2635
2615
2650
2687
2742
2765
2743
2839
2825
2787
2767
2682
2618
2608
2612
2588
2590
2600
2992
4095
4095
3651
2752
2540
2386
2391
2403
2416
2420
2433
2459
2497
2553
2546
2583
2612
2625
2675
2634
2674
2714
2749
2730
2725
2738
2775
2777
2736
2769
2748
2722
2739
2764
2809
2756
2765
2730
2749
2731
2751
2738
2704
2731
2734
2703
2822
2877
2883
2930
2928
2896
2882
2803
2674
2694
2703
2737
2686
2637
2944
4095
4095
4095
3009
2714
2547
2477
2448
2464
2533
2507
2537
2554
2603
2603
2637
2663
2714
2736
2717
2751
2798
2811
2837
2796
2815
2829
2822
2789
2800
2836
2817
2798
2789
2795
2847
2863
2782
2791
2800
2849
2783
2727
2800
2738
2784
2889
2911
2950
2985
2870
2897
2838
2695
2659
2667
2659
2672
2631
2765
3415
4095
4095
3107
2655
2523
2384
2373
2386
2393
2452
2483
2510
2475
2531
2559
2559
2610
2582
2640
2688
2606
2699
2733
2737
2754
2731
2703
2705
2793
2758
2727
2768
2717
2743
2800
2725
2759
2737
2793
2749
2756
2731
2735
2784
2777
2779
2869
2899
2943
2991
2891
2874
2900
2768
2714
2719
2768
2741
2747
2928
4030
4095
4095
3137
2769
2611
2527
2530
2541
2543
2559
2582
2586
2675
2686
2710
2721
2745
2764
2762
2757
2786
2829
2881
2879
2918
2893
2909
2921
2896
2960
2954
2966
2955
2943
2944
2923
2969
2954
2964
2969
2937
2930
2943
2951
2909
2957
2978
3021
3086
3088
3149
3206
3103
3071
3069
2963
2923
2873
2889
2896
2875
3082
4095
4095
4095
3250
2847
2704
2642
2640
2585
2608
2663
2690
2663
2615
2727
2742
2814
2813
2815
2830
2821
2825
2871
2918
2887
2949
2914
2860
2851
2848
2859
2875
2866
2902
2866
2885
2885
2880
2852
2896
2855
2827
2863
2821
2834
2819
2799
2928
2957
2948
3039
2998
2935
2912
2822
2736
2667
2749
2730
2636
2661
3088
4095
4095
3779
2817
2623
2421
2465
2448
2448
2417
2415
2501
2480
2537
2546
2535
2624
2609
2608
2618
2608
2670
2694
2705
2704
2654
2750
2734
2704
2734
2669
2731
2711
2729
2736
2727
2703
2730
2713
2729
2657
2704
2698
2699
2657
2643
2707
2832
2802
2819
2922
2845
2845
2813
2695
2672
2659
2640
2661
2656
2704
3238
4095
4095
3444
2800
2594
2445
2429
2462
2474
2499
2496
2559
2559
2583
2640
2709
2688
2730
2746
2775
2777
2786
2832
2858
2880
2857
2853
2859
2861
2834
2862
2901
2879
2841
2890
2913
2885
2891
2847
2842
2863
2833
2855
2866
2845
2827
2790
2822
2811
2942
2993
2983
3066
2999
2986
2939
2850
2818
2736
2740
2734
2718
2754
3271
4095
4095
3876
2906
2704
2559
2550
2544
2538
2577
2617
2559
2647
2683
2701
2659
2765
2751
2779
2806
2768
2821
2847
2888
2897
2891
2827
2815
2813
2864
2851
2829
2814
2831
2799
2803
2814
2814
2818
2741
2741
2754
2717
2771
2749
2718
2681
2750
2834
2892
2847
2932
2833
2799
2762
2691
2591
2602
2646
2628
2643
2737
3477
4095
4095
3173
2657
2483
2370
2384
2369
2413
2437
2449
2466
2526
2496
2530
2559
2612
2593
2640
2607
2659
2650
2676
2746
2725
2691
2704
2745
2703
2661
2749
2720
2765
2752
2754
2739
2768
2768
2747
2739
2686
2765
2757
2742
2721
2741
2738
2752
2770
2842
2877
2890
2960
2961
2922
2894
2817
2738
2742
2767
2748
2763
2775
3086
4095
4095
4095
3034
2772
2639
2332
2526
2614
2584
2609
2672
2672
2687
2749
2736
2758
2837
2821
2829
2864
2860
2891
2909
2911
2905
